Photon    Coherent Incoher. Photoel. Nuclear  Electron Tot. w/  Tot. wo/ 
Energy    Scatter. Scatter. Absorb.  Pr. Prd. Pr. Prd. Coherent Coherent 

1.000E-03 4.170E+00 9.021E-03 3.934E+03 0.000E+00 0.000E+00 3.938E+03 3.934E+03 
1.500E-03 3.885E+00 1.650E-02 1.431E+03 0.000E+00 0.000E+00 1.435E+03 1.431E+03 
1.839E-03 3.687E+00 2.170E-02 8.462E+02 0.000E+00 0.000E+00 8.499E+02 8.462E+02 
1.839E-03 3.687E+00 2.170E-02 1.288E+03 0.000E+00 0.000E+00 1.292E+03 1.288E+03 
2.000E-03 3.594E+00 2.415E-02 1.068E+03 0.000E+00 0.000E+00 1.072E+03 1.068E+03 
2.222E-03 3.468E+00 2.752E-02 8.278E+02 0.000E+00 0.000E+00 8.313E+02 8.278E+02 
2.222E-03 3.468E+00 2.752E-02 1.706E+03 0.000E+00 0.000E+00 1.710E+03 1.706E+03 
2.264E-03 3.445E+00 2.815E-02 1.612E+03 0.000E+00 0.000E+00 1.616E+03 1.612E+03 
2.307E-03 3.421E+00 2.879E-02 1.523E+03 0.000E+00 0.000E+00 1.527E+03 1.524E+03 
2.307E-03 3.421E+00 2.879E-02 1.938E+03 0.000E+00 0.000E+00 1.942E+03 1.938E+03 
2.417E-03 3.364E+00 3.042E-02 1.726E+03 0.000E+00 0.000E+00 1.730E+03 1.726E+03 
2.532E-03 3.305E+00 3.211E-02 1.536E+03 0.000E+00 0.000E+00 1.540E+03 1.537E+03 
2.532E-03 3.305E+00 3.211E-02 1.702E+03 0.000E+00 0.000E+00 1.705E+03 1.702E+03 
3.000E-03 3.066E+00 3.876E-02 1.105E+03 0.000E+00 0.000E+00 1.108E+03 1.105E+03 
4.000E-03 2.627E+00 5.152E-02 5.225E+02 0.000E+00 0.000E+00 5.252E+02 5.226E+02 
5.000E-03 2.271E+00 6.235E-02 2.886E+02 0.000E+00 0.000E+00 2.910E+02 2.887E+02 
6.000E-03 1.984E+00 7.144E-02 1.762E+02 0.000E+00 0.000E+00 1.783E+02 1.763E+02 
8.000E-03 1.558E+00 8.549E-02 7.984E+01 0.000E+00 0.000E+00 8.148E+01 7.992E+01 
1.000E-02 1.255E+00 9.575E-02 4.283E+01 0.000E+00 0.000E+00 4.418E+01 4.293E+01 
1.500E-02 7.803E-01 1.128E-01 1.359E+01 0.000E+00 0.000E+00 1.448E+01 1.370E+01 
1.800E-02 6.115E-01 1.196E-01 8.062E+00 0.000E+00 0.000E+00 8.793E+00 8.182E+00 
1.800E-02 6.115E-01 1.196E-01 4.772E+01 0.000E+00 0.000E+00 4.845E+01 4.784E+01 
2.000E-02 5.293E-01 1.233E-01 3.635E+01 0.000E+00 0.000E+00 3.701E+01 3.648E+01 
3.000E-02 2.970E-01 1.341E-01 1.229E+01 0.000E+00 0.000E+00 1.272E+01 1.242E+01 
4.000E-02 1.917E-01 1.384E-01 5.535E+00 0.000E+00 0.000E+00 5.865E+00 5.673E+00 
5.000E-02 1.332E-01 1.395E-01 2.941E+00 0.000E+00 0.000E+00 3.214E+00 3.081E+00 
6.000E-02 9.778E-02 1.391E-01 1.742E+00 0.000E+00 0.000E+00 1.979E+00 1.881E+00 
8.000E-02 5.938E-02 1.360E-01 7.539E-01 0.000E+00 0.000E+00 9.492E-01 8.899E-01 
1.000E-01 4.009E-02 1.318E-01 3.909E-01 0.000E+00 0.000E+00 5.629E-01 5.228E-01 
1.500E-01 1.925E-02 1.214E-01 1.177E-01 0.000E+00 0.000E+00 2.583E-01 2.391E-01 
2.000E-01 1.124E-02 1.124E-01 5.037E-02 0.000E+00 0.000E+00 1.740E-01 1.628E-01 
3.000E-01 5.174E-03 9.871E-02 1.562E-02 0.000E+00 0.000E+00 1.195E-01 1.143E-01 
4.000E-01 2.962E-03 8.880E-02 7.050E-03 0.000E+00 0.000E+00 9.881E-02 9.585E-02 
5.000E-01 1.914E-03 8.130E-02 3.926E-03 0.000E+00 0.000E+00 8.714E-02 8.523E-02 
6.000E-01 1.337E-03 7.532E-02 2.492E-03 0.000E+00 0.000E+00 7.915E-02 7.781E-02 
8.000E-01 7.573E-04 6.626E-02 1.280E-03 0.000E+00 0.000E+00 6.829E-02 6.754E-02 
1.000E+00 4.860E-04 5.962E-02 7.975E-04 0.000E+00 0.000E+00 6.090E-02 6.042E-02 
1.022E+00 4.656E-04 5.899E-02 7.583E-04 0.000E+00 0.000E+00 6.022E-02 5.975E-02 
1.250E+00 3.119E-04 5.334E-02 5.117E-04 7.394E-05 0.000E+00 5.423E-02 5.392E-02 
1.500E+00 2.168E-04 4.849E-02 3.676E-04 3.630E-04 0.000E+00 4.943E-02 4.922E-02 
2.000E+00 1.221E-04 4.140E-02 2.249E-04 1.325E-03 0.000E+00 4.307E-02 4.295E-02 
2.044E+00 1.169E-04 4.088E-02 2.171E-04 1.421E-03 0.000E+00 4.264E-02 4.252E-02 
3.000E+00 5.433E-05 3.257E-02 1.204E-04 3.571E-03 1.140E-05 3.633E-02 3.627E-02 
4.000E+00 3.056E-05 2.717E-02 8.037E-05 5.632E-03 4.652E-05 3.296E-02 3.293E-02 
5.000E+00 1.956E-05 2.347E-02 5.975E-05 7.441E-03 9.267E-05 3.108E-02 3.106E-02 
6.000E+00 1.359E-05 2.074E-02 4.734E-05 9.029E-03 1.423E-04 2.997E-02 2.996E-02 
7.000E+00 9.984E-06 1.864E-02 3.909E-05 1.045E-02 1.917E-04 2.933E-02 2.932E-02 
8.000E+00 7.642E-06 1.697E-02 3.325E-05 1.172E-02 2.397E-04 2.897E-02 2.896E-02 
9.000E+00 6.040E-06 1.560E-02 2.891E-05 1.288E-02 2.857E-04 2.880E-02 2.879E-02 
1.000E+01 4.893E-06 1.445E-02 2.556E-05 1.394E-02 3.294E-04 2.875E-02 2.875E-02 
1.100E+01 4.042E-06 1.348E-02 2.289E-05 1.490E-02 3.709E-04 2.878E-02 2.878E-02 
1.200E+01 3.397E-06 1.264E-02 2.072E-05 1.579E-02 4.101E-04 2.887E-02 2.887E-02 
1.300E+01 2.895E-06 1.191E-02 1.892E-05 1.661E-02 4.471E-04 2.899E-02 2.899E-02 
1.400E+01 2.496E-06 1.127E-02 1.741E-05 1.737E-02 4.823E-04 2.913E-02 2.913E-02 
1.500E+01 2.174E-06 1.070E-02 1.612E-05 1.807E-02 5.157E-04 2.930E-02 2.930E-02 
1.600E+01 1.911E-06 1.019E-02 1.500E-05 1.873E-02 5.476E-04 2.948E-02 2.948E-02 
1.800E+01 1.510E-06 9.310E-03 1.318E-05 1.994E-02 6.066E-04 2.987E-02 2.987E-02 
2.000E+01 1.223E-06 8.584E-03 1.175E-05 2.102E-02 6.604E-04 3.027E-02 3.027E-02 
2.200E+01 1.011E-06 7.975E-03 1.060E-05 2.200E-02 7.101E-04 3.070E-02 3.070E-02 
2.400E+01 8.494E-07 7.452E-03 9.647E-06 2.289E-02 7.557E-04 3.111E-02 3.111E-02 
2.600E+01 7.238E-07 6.997E-03 8.857E-06 2.371E-02 7.979E-04 3.151E-02 3.151E-02 
2.800E+01 6.241E-07 6.601E-03 8.183E-06 2.446E-02 8.373E-04 3.190E-02 3.190E-02 
3.000E+01 5.436E-07 6.251E-03 7.606E-06 2.515E-02 8.741E-04 3.228E-02 3.228E-02 
4.000E+01 3.058E-07 4.966E-03 5.621E-06 2.796E-02 1.027E-03 3.396E-02 3.396E-02 
5.000E+01 1.957E-07 4.146E-03 4.455E-06 3.006E-02 1.145E-03 3.535E-02 3.535E-02 
6.000E+01 1.359E-07 3.572E-03 3.692E-06 3.169E-02 1.240E-03 3.650E-02 3.650E-02 
8.000E+01 7.642E-08 2.817E-03 2.747E-06 3.412E-02 1.385E-03 3.833E-02 3.833E-02 
1.000E+02 4.893E-08 2.339E-03 2.188E-06 3.586E-02 1.492E-03 3.969E-02 3.969E-02 
1.500E+02 2.174E-08 1.665E-03 1.450E-06 3.864E-02 1.674E-03 4.198E-02 4.198E-02 
2.000E+02 1.223E-08 1.306E-03 1.084E-06 4.031E-02 1.791E-03 4.341E-02 4.341E-02 
3.000E+02 5.436E-09 9.253E-04 7.202E-07 4.228E-02 1.937E-03 4.514E-02 4.514E-02 
4.000E+02 3.057E-09 7.247E-04 5.392E-07 4.341E-02 2.027E-03 4.616E-02 4.616E-02 
5.000E+02 1.957E-09 6.000E-04 4.310E-07 4.418E-02 2.089E-03 4.686E-02 4.686E-02 
6.000E+02 1.359E-09 5.138E-04 3.589E-07 4.472E-02 2.135E-03 4.737E-02 4.737E-02 
8.000E+02 7.642E-10 4.012E-04 2.691E-07 4.541E-02 2.199E-03 4.801E-02 4.801E-02 
1.000E+03 4.893E-10 3.301E-04 2.152E-07 4.590E-02 2.241E-03 4.847E-02 4.847E-02 
1.500E+03 2.174E-10 2.305E-04 1.433E-07 4.655E-02 2.305E-03 4.909E-02 4.909E-02 
2.000E+03 1.223E-10 1.784E-04 1.075E-07 4.695E-02 2.342E-03 4.947E-02 4.947E-02 
3.000E+03 5.436E-11 1.240E-04 7.162E-08 4.732E-02 2.382E-03 4.983E-02 4.983E-02 
4.000E+03 3.057E-11 9.576E-05 5.372E-08 4.755E-02 2.406E-03 5.005E-02 5.005E-02 
5.000E+03 1.957E-11 7.828E-05 4.297E-08 4.768E-02 2.420E-03 5.018E-02 5.018E-02 
6.000E+03 1.359E-11 6.639E-05 3.579E-08 4.778E-02 2.431E-03 5.028E-02 5.028E-02 
8.000E+03 7.642E-12 5.114E-05 2.685E-08 4.791E-02 2.444E-03 5.040E-02 5.040E-02 
1.000E+04 4.893E-12 4.175E-05 2.148E-08 4.797E-02 2.453E-03 5.046E-02 5.046E-02 
1.500E+04 2.174E-12 2.886E-05 1.432E-08 4.809E-02 2.465E-03 5.059E-02 5.059E-02 
2.000E+04 1.223E-12 2.218E-05 1.074E-08 4.814E-02 2.471E-03 5.064E-02 5.064E-02 
3.000E+04 5.436E-13 1.530E-05 7.159E-09 4.820E-02 2.478E-03 5.069E-02 5.069E-02 
4.000E+04 3.057E-13 1.175E-05 5.369E-09 4.824E-02 2.483E-03 5.073E-02 5.073E-02 
5.000E+04 1.957E-13 9.565E-06 4.297E-09 4.827E-02 2.485E-03 5.077E-02 5.077E-02 
6.000E+04 1.359E-13 8.087E-06 3.579E-09 4.828E-02 2.487E-03 5.077E-02 5.077E-02 
8.000E+04 7.642E-14 6.201E-06 2.685E-09 4.828E-02 2.488E-03 5.078E-02 5.078E-02 
1.000E+05 4.893E-14 5.044E-06 2.148E-09 4.829E-02 2.490E-03 5.078E-02 5.078E-02 