Photon    Coherent Incoher. Photoel. Nuclear  Electron Tot. w/  Tot. wo/ 
Energy    Scatter. Scatter. Absorb.  Pr. Prd. Pr. Prd. Coherent Coherent 

1.000E-03 3.687E+00 9.489E-03 5.524E+03 0.000E+00 0.000E+00 5.527E+03 5.524E+03 
1.500E-03 3.415E+00 1.755E-02 2.025E+03 0.000E+00 0.000E+00 2.028E+03 2.025E+03 
2.000E-03 3.128E+00 2.548E-02 9.600E+02 0.000E+00 0.000E+00 9.631E+02 9.600E+02 
2.472E-03 2.866E+00 3.247E-02 5.456E+02 0.000E+00 0.000E+00 5.485E+02 5.457E+02 
2.472E-03 2.866E+00 3.247E-02 1.536E+03 0.000E+00 0.000E+00 1.539E+03 1.536E+03 
3.000E-03 2.603E+00 3.971E-02 9.724E+02 0.000E+00 0.000E+00 9.751E+02 9.725E+02 
4.000E-03 2.181E+00 5.169E-02 4.561E+02 0.000E+00 0.000E+00 4.583E+02 4.561E+02 
5.000E-03 1.850E+00 6.170E-02 2.496E+02 0.000E+00 0.000E+00 2.515E+02 2.496E+02 
6.000E-03 1.587E+00 7.025E-02 1.509E+02 0.000E+00 0.000E+00 1.526E+02 1.510E+02 
7.112E-03 1.354E+00 7.855E-02 9.378E+01 0.000E+00 0.000E+00 9.521E+01 9.385E+01 
7.112E-03 1.354E+00 7.855E-02 2.588E+02 0.000E+00 0.000E+00 2.602E+02 2.589E+02 
8.000E-03 1.205E+00 8.445E-02 1.915E+02 0.000E+00 0.000E+00 1.928E+02 1.916E+02 
1.000E-02 9.455E-01 9.589E-02 1.052E+02 0.000E+00 0.000E+00 1.062E+02 1.053E+02 
1.500E-02 5.770E-01 1.158E-01 3.416E+01 0.000E+00 0.000E+00 3.486E+01 3.428E+01 
2.000E-02 3.914E-01 1.275E-01 1.502E+01 0.000E+00 0.000E+00 1.554E+01 1.515E+01 
3.000E-02 2.134E-01 1.389E-01 4.583E+00 0.000E+00 0.000E+00 4.935E+00 4.722E+00 
4.000E-02 1.346E-01 1.433E-01 1.939E+00 0.000E+00 0.000E+00 2.217E+00 2.082E+00 
5.000E-02 9.309E-02 1.444E-01 9.862E-01 0.000E+00 0.000E+00 1.224E+00 1.131E+00 
6.000E-02 6.836E-02 1.439E-01 5.652E-01 0.000E+00 0.000E+00 7.775E-01 7.091E-01 
8.000E-02 4.137E-02 1.408E-01 2.331E-01 0.000E+00 0.000E+00 4.153E-01 3.739E-01 
1.000E-01 2.767E-02 1.365E-01 1.168E-01 0.000E+00 0.000E+00 2.810E-01 2.533E-01 
1.500E-01 1.301E-02 1.257E-01 3.324E-02 0.000E+00 0.000E+00 1.719E-01 1.589E-01 
2.000E-01 7.519E-03 1.163E-01 1.373E-02 0.000E+00 0.000E+00 1.376E-01 1.300E-01 
3.000E-01 3.428E-03 1.020E-01 4.080E-03 0.000E+00 0.000E+00 1.095E-01 1.060E-01 
4.000E-01 1.949E-03 9.167E-02 1.797E-03 0.000E+00 0.000E+00 9.542E-02 9.347E-02 
5.000E-01 1.255E-03 8.387E-02 9.849E-04 0.000E+00 0.000E+00 8.611E-02 8.485E-02 
6.000E-01 8.738E-04 7.767E-02 6.196E-04 0.000E+00 0.000E+00 7.917E-02 7.829E-02 
8.000E-01 4.931E-04 6.832E-02 3.153E-04 0.000E+00 0.000E+00 6.913E-02 6.863E-02 
1.000E+00 3.161E-04 6.146E-02 1.961E-04 0.000E+00 0.000E+00 6.197E-02 6.165E-02 
1.022E+00 3.027E-04 6.080E-02 1.859E-04 0.000E+00 0.000E+00 6.129E-02 6.099E-02 
1.250E+00 2.025E-04 5.497E-02 1.258E-04 5.469E-05 0.000E+00 5.535E-02 5.515E-02 
1.500E+00 1.407E-04 4.997E-02 9.079E-05 2.848E-04 0.000E+00 5.049E-02 5.035E-02 
2.000E+00 7.921E-05 4.266E-02 5.607E-05 1.098E-03 0.000E+00 4.389E-02 4.381E-02 
2.044E+00 7.582E-05 4.213E-02 5.416E-05 1.182E-03 0.000E+00 4.344E-02 4.337E-02 
3.000E+00 3.521E-05 3.356E-02 3.051E-05 3.072E-03 1.175E-05 3.671E-02 3.668E-02 
4.000E+00 1.981E-05 2.800E-02 2.058E-05 4.927E-03 4.795E-05 3.302E-02 3.300E-02 
5.000E+00 1.268E-05 2.418E-02 1.542E-05 6.569E-03 9.554E-05 3.088E-02 3.086E-02 
6.000E+00 8.807E-06 2.138E-02 1.230E-05 8.035E-03 1.467E-04 2.958E-02 2.957E-02 
7.000E+00 6.468E-06 1.921E-02 1.021E-05 9.339E-03 1.977E-04 2.877E-02 2.876E-02 
8.000E+00 4.953E-06 1.749E-02 8.713E-06 1.051E-02 2.473E-04 2.826E-02 2.826E-02 
9.000E+00 3.913E-06 1.607E-02 7.599E-06 1.157E-02 2.947E-04 2.795E-02 2.795E-02 
1.000E+01 3.170E-06 1.489E-02 6.733E-06 1.254E-02 3.399E-04 2.778E-02 2.778E-02 
1.100E+01 2.620E-06 1.389E-02 6.042E-06 1.341E-02 3.827E-04 2.769E-02 2.769E-02 
1.200E+01 2.201E-06 1.303E-02 5.479E-06 1.421E-02 4.231E-04 2.767E-02 2.767E-02 
1.300E+01 1.876E-06 1.227E-02 5.011E-06 1.495E-02 4.613E-04 2.769E-02 2.769E-02 
1.400E+01 1.617E-06 1.161E-02 4.617E-06 1.564E-02 4.978E-04 2.776E-02 2.776E-02 
1.500E+01 1.409E-06 1.102E-02 4.280E-06 1.629E-02 5.322E-04 2.785E-02 2.784E-02 
1.600E+01 1.238E-06 1.050E-02 3.988E-06 1.689E-02 5.650E-04 2.796E-02 2.796E-02 
1.800E+01 9.786E-07 9.594E-03 3.509E-06 1.800E-02 6.261E-04 2.822E-02 2.822E-02 
2.000E+01 7.923E-07 8.847E-03 3.133E-06 1.899E-02 6.818E-04 2.852E-02 2.852E-02 
2.200E+01 6.550E-07 8.217E-03 2.829E-06 1.989E-02 7.330E-04 2.884E-02 2.884E-02 
2.400E+01 5.503E-07 7.679E-03 2.579E-06 2.070E-02 7.803E-04 2.916E-02 2.916E-02 
2.600E+01 4.689E-07 7.211E-03 2.369E-06 2.145E-02 8.240E-04 2.949E-02 2.949E-02 
2.800E+01 4.043E-07 6.802E-03 2.191E-06 2.213E-02 8.646E-04 2.980E-02 2.980E-02 
3.000E+01 3.522E-07 6.441E-03 2.037E-06 2.277E-02 9.027E-04 3.011E-02 3.011E-02 
4.000E+01 1.981E-07 5.118E-03 1.509E-06 2.536E-02 1.061E-03 3.154E-02 3.154E-02 
5.000E+01 1.268E-07 4.272E-03 1.198E-06 2.729E-02 1.184E-03 3.275E-02 3.275E-02 
6.000E+01 8.807E-08 3.681E-03 9.931E-07 2.881E-02 1.282E-03 3.377E-02 3.377E-02 
8.000E+01 4.953E-08 2.903E-03 7.405E-07 3.106E-02 1.431E-03 3.540E-02 3.540E-02 
1.000E+02 3.170E-08 2.409E-03 5.900E-07 3.268E-02 1.541E-03 3.663E-02 3.663E-02 
1.500E+02 1.409E-08 1.716E-03 3.913E-07 3.530E-02 1.729E-03 3.875E-02 3.875E-02 
2.000E+02 7.923E-09 1.346E-03 2.927E-07 3.688E-02 1.848E-03 4.008E-02 4.008E-02 
3.000E+02 3.522E-09 9.536E-04 1.946E-07 3.875E-02 1.997E-03 4.170E-02 4.170E-02 
4.000E+02 1.981E-09 7.468E-04 1.458E-07 3.984E-02 2.089E-03 4.267E-02 4.267E-02 
5.000E+02 1.268E-09 6.182E-04 1.165E-07 4.055E-02 2.153E-03 4.332E-02 4.332E-02 
6.000E+02 8.806E-10 5.293E-04 9.705E-08 4.107E-02 2.199E-03 4.380E-02 4.380E-02 
8.000E+02 4.953E-10 4.134E-04 7.275E-08 4.176E-02 2.265E-03 4.444E-02 4.444E-02 
1.000E+03 3.170E-10 3.401E-04 5.818E-08 4.220E-02 2.308E-03 4.485E-02 4.485E-02 
1.500E+03 1.409E-10 2.375E-04 3.877E-08 4.286E-02 2.374E-03 4.547E-02 4.547E-02 
2.000E+03 7.923E-11 1.838E-04 2.907E-08 4.322E-02 2.412E-03 4.582E-02 4.582E-02 
3.000E+03 3.522E-11 1.278E-04 1.937E-08 4.360E-02 2.453E-03 4.618E-02 4.618E-02 
4.000E+03 1.981E-11 9.865E-05 1.453E-08 4.381E-02 2.477E-03 4.639E-02 4.639E-02 
5.000E+03 1.268E-11 8.066E-05 1.162E-08 4.395E-02 2.491E-03 4.652E-02 4.652E-02 
6.000E+03 8.806E-12 6.840E-05 9.682E-09 4.403E-02 2.502E-03 4.660E-02 4.660E-02 
8.000E+03 4.953E-12 5.270E-05 7.263E-09 4.416E-02 2.516E-03 4.673E-02 4.673E-02 
1.000E+04 3.170E-12 4.303E-05 5.810E-09 4.423E-02 2.525E-03 4.680E-02 4.680E-02 
1.500E+04 1.409E-12 2.973E-05 3.873E-09 4.434E-02 2.537E-03 4.691E-02 4.691E-02 
2.000E+04 7.923E-13 2.286E-05 2.904E-09 4.439E-02 2.544E-03 4.696E-02 4.696E-02 
3.000E+04 3.522E-13 1.577E-05 1.936E-09 4.445E-02 2.551E-03 4.702E-02 4.702E-02 
4.000E+04 1.981E-13 1.210E-05 1.452E-09 4.449E-02 2.555E-03 4.705E-02 4.705E-02 
5.000E+04 1.268E-13 9.856E-06 1.162E-09 4.451E-02 2.558E-03 4.708E-02 4.708E-02 
6.000E+04 8.806E-14 8.332E-06 9.681E-10 4.452E-02 2.560E-03 4.708E-02 4.708E-02 
8.000E+04 4.953E-14 6.389E-06 7.262E-10 4.454E-02 2.561E-03 4.710E-02 4.710E-02 
1.000E+05 3.170E-14 5.198E-06 5.809E-10 4.454E-02 2.563E-03 4.711E-02 4.711E-02 