Photon    Coherent Incoher. Photoel. Nuclear  Electron Tot. w/  Tot. wo/ 
Energy    Scatter. Scatter. Absorb.  Pr. Prd. Pr. Prd. Coherent Coherent 

1.000E-03 2.145E+00 1.099E-02 3.269E+03 0.000E+00 0.000E+00 3.271E+03 3.269E+03 
1.500E-03 1.962E+00 2.053E-02 1.111E+03 0.000E+00 0.000E+00 1.113E+03 1.111E+03 
1.560E-03 1.940E+00 2.171E-02 9.987E+02 0.000E+00 0.000E+00 1.001E+03 9.987E+02 
1.560E-03 1.940E+00 2.171E-02 1.347E+03 0.000E+00 0.000E+00 1.349E+03 1.347E+03 
1.694E-03 1.889E+00 2.436E-02 1.089E+03 0.000E+00 0.000E+00 1.091E+03 1.089E+03 
1.839E-03 1.834E+00 2.724E-02 8.790E+02 0.000E+00 0.000E+00 8.809E+02 8.790E+02 
1.839E-03 1.834E+00 2.724E-02 1.752E+03 0.000E+00 0.000E+00 1.754E+03 1.752E+03 
2.000E-03 1.775E+00 3.041E-02 1.470E+03 0.000E+00 0.000E+00 1.472E+03 1.470E+03 
3.000E-03 1.441E+00 4.886E-02 5.018E+02 0.000E+00 0.000E+00 5.033E+02 5.018E+02 
3.607E-03 1.274E+00 5.871E-02 3.022E+02 0.000E+00 0.000E+00 3.035E+02 3.022E+02 
3.607E-03 1.274E+00 5.871E-02 4.522E+02 0.000E+00 0.000E+00 4.535E+02 4.523E+02 
4.000E-03 1.180E+00 6.452E-02 3.436E+02 0.000E+00 0.000E+00 3.449E+02 3.437E+02 
5.000E-03 9.827E-01 7.755E-02 1.868E+02 0.000E+00 0.000E+00 1.879E+02 1.869E+02 
6.000E-03 8.317E-01 8.830E-02 1.125E+02 0.000E+00 0.000E+00 1.134E+02 1.126E+02 
8.000E-03 6.182E-01 1.047E-01 4.972E+01 0.000E+00 0.000E+00 5.044E+01 4.982E+01 
1.000E-02 4.772E-01 1.164E-01 2.605E+01 0.000E+00 0.000E+00 2.664E+01 2.617E+01 
1.500E-02 2.807E-01 1.348E-01 7.844E+00 0.000E+00 0.000E+00 8.259E+00 7.979E+00 
2.000E-02 1.852E-01 1.448E-01 3.288E+00 0.000E+00 0.000E+00 3.618E+00 3.433E+00 
3.000E-02 9.904E-02 1.536E-01 9.445E-01 0.000E+00 0.000E+00 1.197E+00 1.098E+00 
4.000E-02 6.195E-02 1.560E-01 3.847E-01 0.000E+00 0.000E+00 6.026E-01 5.407E-01 
5.000E-02 4.238E-02 1.555E-01 1.905E-01 0.000E+00 0.000E+00 3.884E-01 3.460E-01 
6.000E-02 3.077E-02 1.538E-01 1.069E-01 0.000E+00 0.000E+00 2.915E-01 2.607E-01 
8.000E-02 1.828E-02 1.488E-01 4.278E-02 0.000E+00 0.000E+00 2.099E-01 1.916E-01 
1.000E-01 1.208E-02 1.433E-01 2.098E-02 0.000E+00 0.000E+00 1.764E-01 1.643E-01 
1.500E-01 5.594E-03 1.306E-01 5.768E-03 0.000E+00 0.000E+00 1.420E-01 1.364E-01 
2.000E-01 3.205E-03 1.203E-01 2.332E-03 0.000E+00 0.000E+00 1.259E-01 1.227E-01 
3.000E-01 1.447E-03 1.051E-01 6.758E-04 0.000E+00 0.000E+00 1.072E-01 1.058E-01 
4.000E-01 8.188E-04 9.431E-02 2.934E-04 0.000E+00 0.000E+00 9.542E-02 9.461E-02 
5.000E-01 5.256E-04 8.621E-02 1.595E-04 0.000E+00 0.000E+00 8.689E-02 8.637E-02 
6.000E-01 3.656E-04 7.979E-02 9.981E-05 0.000E+00 0.000E+00 8.025E-02 7.989E-02 
8.000E-01 2.060E-04 7.014E-02 5.059E-05 0.000E+00 0.000E+00 7.039E-02 7.019E-02 
1.000E+00 1.319E-04 6.308E-02 3.145E-05 0.000E+00 0.000E+00 6.325E-02 6.312E-02 
1.022E+00 1.263E-04 6.242E-02 2.970E-05 0.000E+00 0.000E+00 6.257E-02 6.245E-02 
1.250E+00 8.448E-05 5.642E-02 2.012E-05 2.952E-05 0.000E+00 5.655E-02 5.647E-02 
1.500E+00 5.868E-05 5.127E-02 1.455E-05 1.603E-04 0.000E+00 5.151E-02 5.145E-02 
2.000E+00 3.301E-05 4.377E-02 9.059E-06 6.320E-04 0.000E+00 4.444E-02 4.441E-02 
2.044E+00 3.161E-05 4.322E-02 8.757E-06 6.811E-04 0.000E+00 4.394E-02 4.391E-02 
3.000E+00 1.468E-05 3.443E-02 4.987E-06 1.795E-03 1.205E-05 3.626E-02 3.624E-02 
4.000E+00 8.256E-06 2.872E-02 3.391E-06 2.901E-03 4.919E-05 3.169E-02 3.168E-02 
5.000E+00 5.284E-06 2.480E-02 2.555E-06 3.885E-03 9.800E-05 2.879E-02 2.879E-02 
6.000E+00 3.670E-06 2.192E-02 2.045E-06 4.766E-03 1.505E-04 2.685E-02 2.684E-02 
7.000E+00 2.696E-06 1.971E-02 1.702E-06 5.550E-03 2.029E-04 2.546E-02 2.546E-02 
8.000E+00 2.064E-06 1.793E-02 1.457E-06 6.256E-03 2.538E-04 2.445E-02 2.444E-02 
9.000E+00 1.631E-06 1.649E-02 1.273E-06 6.897E-03 3.026E-04 2.369E-02 2.369E-02 
1.000E+01 1.321E-06 1.528E-02 1.130E-06 7.477E-03 3.491E-04 2.310E-02 2.310E-02 
1.100E+01 1.092E-06 1.425E-02 1.015E-06 8.005E-03 3.932E-04 2.265E-02 2.265E-02 
1.200E+01 9.175E-07 1.336E-02 9.215E-07 8.489E-03 4.349E-04 2.229E-02 2.229E-02 
1.300E+01 7.817E-07 1.259E-02 8.437E-07 8.939E-03 4.743E-04 2.200E-02 2.200E-02 
1.400E+01 6.740E-07 1.191E-02 7.779E-07 9.357E-03 5.119E-04 2.178E-02 2.178E-02 
1.500E+01 5.872E-07 1.131E-02 7.217E-07 9.748E-03 5.474E-04 2.160E-02 2.160E-02 
1.600E+01 5.160E-07 1.077E-02 6.728E-07 1.012E-02 5.815E-04 2.146E-02 2.146E-02 
1.800E+01 4.077E-07 9.839E-03 5.927E-07 1.079E-02 6.447E-04 2.127E-02 2.127E-02 
2.000E+01 3.303E-07 9.074E-03 5.297E-07 1.139E-02 7.023E-04 2.117E-02 2.116E-02 
2.200E+01 2.729E-07 8.428E-03 4.786E-07 1.193E-02 7.557E-04 2.112E-02 2.112E-02 
2.400E+01 2.293E-07 7.875E-03 4.365E-07 1.243E-02 8.047E-04 2.111E-02 2.111E-02 
2.600E+01 1.954E-07 7.395E-03 4.013E-07 1.288E-02 8.503E-04 2.113E-02 2.113E-02 
2.800E+01 1.685E-07 6.976E-03 3.713E-07 1.330E-02 8.927E-04 2.117E-02 2.117E-02 
3.000E+01 1.468E-07 6.606E-03 3.455E-07 1.369E-02 9.324E-04 2.122E-02 2.122E-02 
4.000E+01 8.257E-08 5.248E-03 2.563E-07 1.528E-02 1.099E-03 2.162E-02 2.162E-02 
5.000E+01 5.284E-08 4.382E-03 2.036E-07 1.647E-02 1.228E-03 2.208E-02 2.208E-02 
6.000E+01 3.670E-08 3.774E-03 1.689E-07 1.741E-02 1.332E-03 2.252E-02 2.252E-02 
8.000E+01 2.064E-08 2.977E-03 1.260E-07 1.882E-02 1.493E-03 2.329E-02 2.329E-02 
1.000E+02 1.321E-08 2.472E-03 1.004E-07 1.984E-02 1.613E-03 2.392E-02 2.392E-02 
1.500E+02 5.871E-09 1.760E-03 6.665E-08 2.150E-02 1.819E-03 2.508E-02 2.508E-02 
2.000E+02 3.302E-09 1.380E-03 4.987E-08 2.251E-02 1.952E-03 2.584E-02 2.584E-02 
3.000E+02 1.468E-09 9.780E-04 3.318E-08 2.372E-02 2.120E-03 2.682E-02 2.682E-02 
4.000E+02 8.256E-10 7.659E-04 2.486E-08 2.443E-02 2.223E-03 2.742E-02 2.742E-02 
5.000E+02 5.284E-10 6.341E-04 1.987E-08 2.489E-02 2.296E-03 2.782E-02 2.782E-02 
6.000E+02 3.669E-10 5.429E-04 1.655E-08 2.523E-02 2.350E-03 2.812E-02 2.812E-02 
8.000E+02 2.064E-10 4.240E-04 1.241E-08 2.569E-02 2.424E-03 2.854E-02 2.854E-02 
1.000E+03 1.321E-10 3.489E-04 9.923E-09 2.598E-02 2.474E-03 2.881E-02 2.881E-02 
1.500E+03 5.871E-11 2.436E-04 6.611E-09 2.641E-02 2.550E-03 2.921E-02 2.921E-02 
2.000E+03 3.302E-11 1.886E-04 4.957E-09 2.665E-02 2.593E-03 2.943E-02 2.943E-02 
3.000E+03 1.468E-11 1.311E-04 3.304E-09 2.690E-02 2.640E-03 2.968E-02 2.968E-02 
4.000E+03 8.256E-12 1.012E-04 2.478E-09 2.705E-02 2.668E-03 2.982E-02 2.982E-02 
5.000E+03 5.284E-12 8.274E-05 1.982E-09 2.713E-02 2.686E-03 2.990E-02 2.990E-02 
6.000E+03 3.669E-12 7.017E-05 1.652E-09 2.720E-02 2.698E-03 2.996E-02 2.996E-02 
8.000E+03 2.064E-12 5.405E-05 1.239E-09 2.727E-02 2.713E-03 3.004E-02 3.004E-02 
1.000E+04 1.321E-12 4.412E-05 9.911E-10 2.733E-02 2.724E-03 3.009E-02 3.009E-02 
1.500E+04 5.871E-13 3.050E-05 6.607E-10 2.739E-02 2.738E-03 3.016E-02 3.016E-02 
2.000E+04 3.302E-13 2.344E-05 4.954E-10 2.743E-02 2.746E-03 3.020E-02 3.020E-02 
3.000E+04 1.468E-13 1.617E-05 3.303E-10 2.747E-02 2.754E-03 3.024E-02 3.024E-02 
4.000E+04 8.256E-14 1.241E-05 2.478E-10 2.749E-02 2.759E-03 3.026E-02 3.026E-02 
5.000E+04 5.284E-14 1.011E-05 1.982E-10 2.750E-02 2.762E-03 3.027E-02 3.027E-02 
6.000E+04 3.669E-14 8.546E-06 1.651E-10 2.751E-02 2.764E-03 3.029E-02 3.029E-02 
8.000E+04 2.064E-14 6.553E-06 1.239E-10 2.752E-02 2.766E-03 3.029E-02 3.029E-02 
1.000E+05 1.321E-14 5.331E-06 9.910E-11 2.753E-02 2.768E-03 3.030E-02 3.030E-02 