Photon    Coherent Incoher. Photoel. Nuclear  Electron Tot. w/  Tot. wo/ 
Energy    Scatter. Scatter. Absorb.  Pr. Prd. Pr. Prd. Coherent Coherent 

1.000E-03 2.118E+00 9.032E-03 5.105E+03 0.000E+00 0.000E+00 5.107E+03 5.105E+03 
1.500E-03 1.965E+00 1.785E-02 1.781E+03 0.000E+00 0.000E+00 1.783E+03 1.781E+03 
1.560E-03 1.946E+00 1.899E-02 1.604E+03 0.000E+00 0.000E+00 1.606E+03 1.604E+03 
1.560E-03 1.946E+00 1.899E-02 1.811E+03 0.000E+00 0.000E+00 1.813E+03 1.811E+03 
1.694E-03 1.901E+00 2.158E-02 1.458E+03 0.000E+00 0.000E+00 1.460E+03 1.458E+03 
1.839E-03 1.852E+00 2.444E-02 1.172E+03 0.000E+00 0.000E+00 1.174E+03 1.172E+03 
1.839E-03 1.852E+00 2.444E-02 1.259E+03 0.000E+00 0.000E+00 1.260E+03 1.259E+03 
2.000E-03 1.797E+00 2.763E-02 1.012E+03 0.000E+00 0.000E+00 1.014E+03 1.012E+03 
3.000E-03 1.472E+00 4.728E-02 3.321E+02 0.000E+00 0.000E+00 3.336E+02 3.321E+02 
4.000E-03 1.200E+00 6.480E-02 1.473E+02 0.000E+00 0.000E+00 1.485E+02 1.473E+02 
5.000E-03 9.865E-01 7.937E-02 7.755E+01 0.000E+00 0.000E+00 7.862E+01 7.763E+01 
6.000E-03 8.214E-01 9.109E-02 4.561E+01 0.000E+00 0.000E+00 4.652E+01 4.570E+01 
7.112E-03 6.809E-01 1.014E-01 2.768E+01 0.000E+00 0.000E+00 2.846E+01 2.778E+01 
7.112E-03 6.809E-01 1.014E-01 9.103E+01 0.000E+00 0.000E+00 9.181E+01 9.113E+01 
8.000E-03 5.942E-01 1.081E-01 6.728E+01 0.000E+00 0.000E+00 6.798E+01 6.738E+01 
1.000E-02 4.532E-01 1.196E-01 3.682E+01 0.000E+00 0.000E+00 3.739E+01 3.694E+01 
1.500E-02 2.711E-01 1.366E-01 1.191E+01 0.000E+00 0.000E+00 1.232E+01 1.204E+01 
2.000E-02 1.837E-01 1.459E-01 5.227E+00 0.000E+00 0.000E+00 5.556E+00 5.372E+00 
3.000E-02 9.948E-02 1.543E-01 1.593E+00 0.000E+00 0.000E+00 1.846E+00 1.747E+00 
4.000E-02 6.198E-02 1.563E-01 6.737E-01 0.000E+00 0.000E+00 8.919E-01 8.300E-01 
5.000E-02 4.244E-02 1.555E-01 3.426E-01 0.000E+00 0.000E+00 5.406E-01 4.981E-01 
6.000E-02 3.095E-02 1.535E-01 1.964E-01 0.000E+00 0.000E+00 3.809E-01 3.499E-01 
8.000E-02 1.857E-02 1.482E-01 8.103E-02 0.000E+00 0.000E+00 2.478E-01 2.292E-01 
1.000E-01 1.235E-02 1.426E-01 4.062E-02 0.000E+00 0.000E+00 1.956E-01 1.832E-01 
1.500E-01 5.755E-03 1.299E-01 1.157E-02 0.000E+00 0.000E+00 1.472E-01 1.415E-01 
2.000E-01 3.310E-03 1.196E-01 4.783E-03 0.000E+00 0.000E+00 1.277E-01 1.244E-01 
3.000E-01 1.502E-03 1.044E-01 1.422E-03 0.000E+00 0.000E+00 1.074E-01 1.059E-01 
4.000E-01 8.521E-04 9.373E-02 6.268E-04 0.000E+00 0.000E+00 9.521E-02 9.436E-02 
5.000E-01 5.479E-04 8.568E-02 3.437E-04 0.000E+00 0.000E+00 8.657E-02 8.603E-02 
6.000E-01 3.814E-04 7.930E-02 2.163E-04 0.000E+00 0.000E+00 7.989E-02 7.951E-02 
8.000E-01 2.151E-04 6.971E-02 1.101E-04 0.000E+00 0.000E+00 7.003E-02 6.982E-02 
1.000E+00 1.378E-04 6.270E-02 6.845E-05 0.000E+00 0.000E+00 6.291E-02 6.277E-02 
1.022E+00 1.320E-04 6.204E-02 6.490E-05 0.000E+00 0.000E+00 6.223E-02 6.210E-02 
1.250E+00 8.831E-05 5.607E-02 4.390E-05 2.967E-05 0.000E+00 5.623E-02 5.615E-02 
1.500E+00 6.133E-05 5.096E-02 3.168E-05 1.582E-04 0.000E+00 5.121E-02 5.115E-02 
2.000E+00 3.453E-05 4.350E-02 1.956E-05 6.184E-04 0.000E+00 4.418E-02 4.414E-02 
2.044E+00 3.305E-05 4.295E-02 1.890E-05 6.659E-04 0.000E+00 4.367E-02 4.364E-02 
3.000E+00 1.535E-05 3.422E-02 1.064E-05 1.745E-03 1.197E-05 3.600E-02 3.599E-02 
4.000E+00 8.634E-06 2.855E-02 7.178E-06 2.813E-03 4.889E-05 3.142E-02 3.142E-02 
5.000E+00 5.526E-06 2.465E-02 5.378E-06 3.761E-03 9.740E-05 2.852E-02 2.852E-02 
6.000E+00 3.838E-06 2.179E-02 4.287E-06 4.609E-03 1.496E-04 2.656E-02 2.655E-02 
7.000E+00 2.819E-06 1.959E-02 3.558E-06 5.364E-03 2.017E-04 2.516E-02 2.515E-02 
8.000E+00 2.159E-06 1.782E-02 3.037E-06 6.044E-03 2.523E-04 2.413E-02 2.412E-02 
9.000E+00 1.706E-06 1.638E-02 2.649E-06 6.661E-03 3.007E-04 2.335E-02 2.335E-02 
1.000E+01 1.382E-06 1.518E-02 2.347E-06 7.218E-03 3.469E-04 2.275E-02 2.275E-02 
1.100E+01 1.142E-06 1.416E-02 2.106E-06 7.726E-03 3.907E-04 2.228E-02 2.228E-02 
1.200E+01 9.595E-07 1.328E-02 1.909E-06 8.193E-03 4.322E-04 2.191E-02 2.191E-02 
1.300E+01 8.176E-07 1.251E-02 1.746E-06 8.624E-03 4.714E-04 2.161E-02 2.161E-02 
1.400E+01 7.048E-07 1.183E-02 1.609E-06 9.027E-03 5.087E-04 2.137E-02 2.137E-02 
1.500E+01 6.140E-07 1.124E-02 1.491E-06 9.403E-03 5.439E-04 2.118E-02 2.118E-02 
1.600E+01 5.397E-07 1.070E-02 1.390E-06 9.757E-03 5.779E-04 2.104E-02 2.104E-02 
1.800E+01 4.265E-07 9.778E-03 1.223E-06 1.040E-02 6.407E-04 2.082E-02 2.082E-02 
2.000E+01 3.453E-07 9.018E-03 1.092E-06 1.098E-02 6.980E-04 2.070E-02 2.070E-02 
2.200E+01 2.855E-07 8.376E-03 9.857E-07 1.151E-02 7.511E-04 2.064E-02 2.064E-02 
2.400E+01 2.399E-07 7.827E-03 8.985E-07 1.199E-02 7.998E-04 2.061E-02 2.061E-02 
2.600E+01 2.044E-07 7.349E-03 8.254E-07 1.242E-02 8.452E-04 2.062E-02 2.062E-02 
2.800E+01 1.762E-07 6.933E-03 7.632E-07 1.283E-02 8.875E-04 2.065E-02 2.065E-02 
3.000E+01 1.535E-07 6.565E-03 7.098E-07 1.320E-02 9.269E-04 2.069E-02 2.069E-02 
4.000E+01 8.636E-08 5.216E-03 5.257E-07 1.472E-02 1.093E-03 2.103E-02 2.103E-02 
5.000E+01 5.526E-08 4.355E-03 4.174E-07 1.587E-02 1.222E-03 2.144E-02 2.144E-02 
6.000E+01 3.838E-08 3.751E-03 3.460E-07 1.677E-02 1.326E-03 2.184E-02 2.184E-02 
8.000E+01 2.159E-08 2.959E-03 2.580E-07 1.813E-02 1.487E-03 2.258E-02 2.258E-02 
1.000E+02 1.381E-08 2.456E-03 2.055E-07 1.912E-02 1.607E-03 2.318E-02 2.318E-02 
1.500E+02 6.140E-09 1.749E-03 1.363E-07 2.073E-02 1.814E-03 2.429E-02 2.429E-02 
2.000E+02 3.453E-09 1.371E-03 1.020E-07 2.172E-02 1.948E-03 2.503E-02 2.503E-02 
3.000E+02 1.535E-09 9.719E-04 6.780E-08 2.289E-02 2.118E-03 2.597E-02 2.597E-02 
4.000E+02 8.634E-10 7.612E-04 5.078E-08 2.357E-02 2.222E-03 2.655E-02 2.655E-02 
5.000E+02 5.526E-10 6.302E-04 4.060E-08 2.402E-02 2.294E-03 2.694E-02 2.694E-02 
6.000E+02 3.838E-10 5.397E-04 3.381E-08 2.434E-02 2.348E-03 2.723E-02 2.723E-02 
8.000E+02 2.159E-10 4.214E-04 2.534E-08 2.478E-02 2.422E-03 2.762E-02 2.762E-02 
1.000E+03 1.381E-10 3.467E-04 2.027E-08 2.506E-02 2.472E-03 2.788E-02 2.788E-02 
1.500E+03 6.140E-11 2.421E-04 1.350E-08 2.548E-02 2.546E-03 2.827E-02 2.827E-02 
2.000E+03 3.453E-11 1.874E-04 1.013E-08 2.570E-02 2.589E-03 2.848E-02 2.848E-02 
3.000E+03 1.535E-11 1.303E-04 6.749E-09 2.595E-02 2.635E-03 2.871E-02 2.871E-02 
4.000E+03 8.634E-12 1.006E-04 5.060E-09 2.608E-02 2.663E-03 2.884E-02 2.884E-02 
5.000E+03 5.526E-12 8.223E-05 4.047E-09 2.616E-02 2.679E-03 2.893E-02 2.893E-02 
6.000E+03 3.838E-12 6.973E-05 3.373E-09 2.622E-02 2.691E-03 2.898E-02 2.898E-02 
8.000E+03 2.159E-12 5.371E-05 2.530E-09 2.630E-02 2.707E-03 2.906E-02 2.906E-02 
1.000E+04 1.381E-12 4.385E-05 2.024E-09 2.634E-02 2.717E-03 2.911E-02 2.911E-02 
1.500E+04 6.140E-13 3.031E-05 1.349E-09 2.641E-02 2.730E-03 2.917E-02 2.917E-02 
2.000E+04 3.453E-13 2.330E-05 1.012E-09 2.645E-02 2.738E-03 2.921E-02 2.921E-02 
3.000E+04 1.535E-13 1.607E-05 6.745E-10 2.649E-02 2.746E-03 2.925E-02 2.925E-02 
4.000E+04 8.634E-14 1.234E-05 5.060E-10 2.651E-02 2.751E-03 2.927E-02 2.927E-02 
5.000E+04 5.526E-14 1.005E-05 4.047E-10 2.652E-02 2.754E-03 2.928E-02 2.928E-02 
6.000E+04 3.838E-14 8.494E-06 3.372E-10 2.653E-02 2.756E-03 2.929E-02 2.929E-02 
8.000E+04 2.159E-14 6.513E-06 2.530E-10 2.654E-02 2.757E-03 2.930E-02 2.930E-02 
1.000E+05 1.381E-14 5.297E-06 2.023E-10 2.655E-02 2.759E-03 2.931E-02 2.931E-02 