Photon    Coherent Incoher. Photoel. Nuclear  Electron Tot. w/  Tot. wo/ 
Energy    Scatter. Scatter. Absorb.  Pr. Prd. Pr. Prd. Coherent Coherent 

1.000E-03 2.284E+00 1.158E-02 4.413E+03 0.000E+00 0.000E+00 4.415E+03 4.413E+03 
1.500E-03 2.088E+00 2.092E-02 1.511E+03 0.000E+00 0.000E+00 1.513E+03 1.511E+03 
2.000E-03 1.892E+00 3.069E-02 6.880E+02 0.000E+00 0.000E+00 6.899E+02 6.880E+02 
3.000E-03 1.540E+00 5.004E-02 2.205E+02 0.000E+00 0.000E+00 2.221E+02 2.205E+02 
4.000E-03 1.252E+00 6.707E-02 9.667E+01 0.000E+00 0.000E+00 9.799E+01 9.674E+01 
4.038E-03 1.242E+00 6.766E-02 9.407E+01 0.000E+00 0.000E+00 9.538E+01 9.414E+01 
4.038E-03 1.242E+00 6.766E-02 4.563E+02 0.000E+00 0.000E+00 4.576E+02 4.564E+02 
5.000E-03 1.028E+00 8.108E-02 2.654E+02 0.000E+00 0.000E+00 2.665E+02 2.655E+02 
6.000E-03 8.603E-01 9.228E-02 1.631E+02 0.000E+00 0.000E+00 1.640E+02 1.632E+02 
8.000E-03 6.374E-01 1.084E-01 7.452E+01 0.000E+00 0.000E+00 7.526E+01 7.463E+01 
1.000E-02 5.010E-01 1.193E-01 3.992E+01 0.000E+00 0.000E+00 4.054E+01 4.004E+01 
1.500E-02 3.101E-01 1.362E-01 1.246E+01 0.000E+00 0.000E+00 1.291E+01 1.260E+01 
2.000E-02 2.083E-01 1.460E-01 5.343E+00 0.000E+00 0.000E+00 5.698E+00 5.489E+00 
3.000E-02 1.116E-01 1.548E-01 1.579E+00 0.000E+00 0.000E+00 1.845E+00 1.734E+00 
4.000E-02 7.001E-02 1.570E-01 6.548E-01 0.000E+00 0.000E+00 8.819E-01 8.118E-01 
5.000E-02 4.823E-02 1.564E-01 3.283E-01 0.000E+00 0.000E+00 5.330E-01 4.847E-01 
6.000E-02 3.527E-02 1.546E-01 1.861E-01 0.000E+00 0.000E+00 3.759E-01 3.407E-01 
8.000E-02 2.113E-02 1.496E-01 7.546E-02 0.000E+00 0.000E+00 2.462E-01 2.251E-01 
1.000E-01 1.402E-02 1.441E-01 3.738E-02 0.000E+00 0.000E+00 1.955E-01 1.815E-01 
1.500E-01 6.528E-03 1.315E-01 1.044E-02 0.000E+00 0.000E+00 1.484E-01 1.419E-01 
2.000E-01 3.754E-03 1.211E-01 4.262E-03 0.000E+00 0.000E+00 1.292E-01 1.254E-01 
3.000E-01 1.701E-03 1.058E-01 1.249E-03 0.000E+00 0.000E+00 1.088E-01 1.071E-01 
4.000E-01 9.650E-04 9.499E-02 5.456E-04 0.000E+00 0.000E+00 9.651E-02 9.554E-02 
5.000E-01 6.199E-04 8.685E-02 2.976E-04 0.000E+00 0.000E+00 8.777E-02 8.715E-02 
6.000E-01 4.315E-04 8.038E-02 1.866E-04 0.000E+00 0.000E+00 8.100E-02 8.057E-02 
8.000E-01 2.432E-04 7.066E-02 9.473E-05 0.000E+00 0.000E+00 7.099E-02 7.075E-02 
1.000E+00 1.558E-04 6.356E-02 5.889E-05 0.000E+00 0.000E+00 6.377E-02 6.362E-02 
1.022E+00 1.492E-04 6.289E-02 5.574E-05 0.000E+00 0.000E+00 6.309E-02 6.294E-02 
1.250E+00 9.981E-05 5.684E-02 3.774E-05 3.251E-05 0.000E+00 5.701E-02 5.691E-02 
1.500E+00 6.933E-05 5.166E-02 2.727E-05 1.740E-04 0.000E+00 5.193E-02 5.186E-02 
2.000E+00 3.901E-05 4.409E-02 1.691E-05 6.836E-04 0.000E+00 4.483E-02 4.480E-02 
2.044E+00 3.735E-05 4.354E-02 1.635E-05 7.366E-04 0.000E+00 4.433E-02 4.430E-02 
3.000E+00 1.734E-05 3.469E-02 9.263E-06 1.930E-03 1.214E-05 3.666E-02 3.664E-02 
4.000E+00 9.760E-06 2.894E-02 6.273E-06 3.112E-03 4.956E-05 3.212E-02 3.211E-02 
5.000E+00 6.245E-06 2.499E-02 4.716E-06 4.162E-03 9.875E-05 2.926E-02 2.926E-02 
6.000E+00 4.337E-06 2.209E-02 3.768E-06 5.102E-03 1.516E-04 2.735E-02 2.735E-02 
7.000E+00 3.186E-06 1.986E-02 3.132E-06 5.938E-03 2.045E-04 2.601E-02 2.600E-02 
8.000E+00 2.439E-06 1.807E-02 2.678E-06 6.691E-03 2.557E-04 2.502E-02 2.502E-02 
9.000E+00 1.927E-06 1.661E-02 2.337E-06 7.374E-03 3.049E-04 2.429E-02 2.429E-02 
1.000E+01 1.562E-06 1.539E-02 2.073E-06 7.993E-03 3.516E-04 2.374E-02 2.374E-02 
1.100E+01 1.290E-06 1.435E-02 1.862E-06 8.555E-03 3.961E-04 2.331E-02 2.331E-02 
1.200E+01 1.084E-06 1.346E-02 1.690E-06 9.070E-03 4.380E-04 2.297E-02 2.297E-02 
1.300E+01 9.241E-07 1.268E-02 1.546E-06 9.547E-03 4.777E-04 2.271E-02 2.271E-02 
1.400E+01 7.964E-07 1.200E-02 1.425E-06 9.995E-03 5.156E-04 2.251E-02 2.251E-02 
1.500E+01 6.939E-07 1.139E-02 1.322E-06 1.041E-02 5.513E-04 2.235E-02 2.235E-02 
1.600E+01 6.099E-07 1.085E-02 1.232E-06 1.080E-02 5.856E-04 2.224E-02 2.224E-02 
1.800E+01 4.819E-07 9.913E-03 1.084E-06 1.152E-02 6.492E-04 2.208E-02 2.208E-02 
2.000E+01 3.903E-07 9.142E-03 9.685E-07 1.215E-02 7.073E-04 2.200E-02 2.200E-02 
2.200E+01 3.226E-07 8.492E-03 8.752E-07 1.273E-02 7.610E-04 2.199E-02 2.199E-02 
2.400E+01 2.710E-07 7.935E-03 7.982E-07 1.326E-02 8.103E-04 2.201E-02 2.201E-02 
2.600E+01 2.310E-07 7.450E-03 7.330E-07 1.374E-02 8.561E-04 2.205E-02 2.205E-02 
2.800E+01 1.991E-07 7.029E-03 6.785E-07 1.419E-02 8.989E-04 2.212E-02 2.212E-02 
3.000E+01 1.735E-07 6.656E-03 6.309E-07 1.460E-02 9.388E-04 2.219E-02 2.219E-02 
4.000E+01 9.760E-08 5.288E-03 4.677E-07 1.628E-02 1.107E-03 2.268E-02 2.268E-02 
5.000E+01 6.246E-08 4.415E-03 3.715E-07 1.754E-02 1.236E-03 2.320E-02 2.320E-02 
6.000E+01 4.337E-08 3.803E-03 3.081E-07 1.854E-02 1.341E-03 2.368E-02 2.368E-02 
8.000E+01 2.439E-08 3.000E-03 2.298E-07 2.003E-02 1.503E-03 2.453E-02 2.453E-02 
1.000E+02 1.562E-08 2.490E-03 1.831E-07 2.110E-02 1.624E-03 2.522E-02 2.522E-02 
1.500E+02 6.939E-09 1.773E-03 1.215E-07 2.287E-02 1.832E-03 2.647E-02 2.647E-02 
2.000E+02 3.903E-09 1.390E-03 9.088E-08 2.395E-02 1.967E-03 2.731E-02 2.731E-02 
3.000E+02 1.734E-09 9.853E-04 6.046E-08 2.523E-02 2.138E-03 2.836E-02 2.836E-02 
4.000E+02 9.760E-10 7.717E-04 4.529E-08 2.599E-02 2.244E-03 2.900E-02 2.900E-02 
5.000E+02 6.245E-10 6.389E-04 3.621E-08 2.649E-02 2.317E-03 2.945E-02 2.945E-02 
6.000E+02 4.337E-10 5.471E-04 3.015E-08 2.685E-02 2.371E-03 2.977E-02 2.977E-02 
8.000E+02 2.439E-10 4.272E-04 2.260E-08 2.734E-02 2.448E-03 3.021E-02 3.021E-02 
1.000E+03 1.561E-10 3.514E-04 1.808E-08 2.765E-02 2.499E-03 3.050E-02 3.050E-02 
1.500E+03 6.939E-11 2.455E-04 1.205E-08 2.812E-02 2.576E-03 3.094E-02 3.094E-02 
2.000E+03 3.903E-11 1.900E-04 9.032E-09 2.837E-02 2.620E-03 3.118E-02 3.118E-02 
3.000E+03 1.734E-11 1.321E-04 6.020E-09 2.865E-02 2.669E-03 3.145E-02 3.145E-02 
4.000E+03 9.760E-12 1.020E-04 4.514E-09 2.880E-02 2.697E-03 3.159E-02 3.159E-02 
5.000E+03 6.245E-12 8.337E-05 3.611E-09 2.889E-02 2.715E-03 3.169E-02 3.169E-02 
6.000E+03 4.337E-12 7.069E-05 3.009E-09 2.895E-02 2.727E-03 3.175E-02 3.175E-02 
8.000E+03 2.439E-12 5.446E-05 2.256E-09 2.904E-02 2.744E-03 3.184E-02 3.184E-02 
1.000E+04 1.561E-12 4.446E-05 1.805E-09 2.909E-02 2.754E-03 3.189E-02 3.189E-02 
1.500E+04 6.939E-13 3.073E-05 1.203E-09 2.917E-02 2.768E-03 3.197E-02 3.197E-02 
2.000E+04 3.903E-13 2.363E-05 9.026E-10 2.921E-02 2.777E-03 3.201E-02 3.201E-02 
3.000E+04 1.734E-13 1.629E-05 6.017E-10 2.925E-02 2.785E-03 3.205E-02 3.205E-02 
4.000E+04 9.760E-14 1.251E-05 4.513E-10 2.927E-02 2.790E-03 3.208E-02 3.208E-02 
5.000E+04 6.245E-14 1.019E-05 3.610E-10 2.928E-02 2.793E-03 3.209E-02 3.209E-02 
6.000E+04 4.337E-14 8.611E-06 3.009E-10 2.930E-02 2.795E-03 3.210E-02 3.210E-02 
8.000E+04 2.439E-14 6.603E-06 2.256E-10 2.931E-02 2.797E-03 3.212E-02 3.212E-02 
1.000E+05 1.561E-14 5.371E-06 1.805E-10 2.932E-02 2.799E-03 3.212E-02 3.212E-02 