Photon    Coherent Incoher. Photoel. Nuclear  Electron Tot. w/  Tot. wo/ 							
Energy    Scatter. Scatter. Absorb.  Pr. Prd. Pr. Prd. Coherent Coherent 							
							
1.000E-03 1.981E+00 1.069E-02 3.176E+03 0.000E+00 0.000E+00 3.178E+03 3.176E+03 							
1.500E-03 1.810E+00 2.060E-02 1.073E+03 0.000E+00 0.000E+00 1.075E+03 1.073E+03 							
1.839E-03 1.687E+00 2.766E-02 6.117E+02 0.000E+00 0.000E+00 6.134E+02 6.117E+02 							
1.839E-03 1.687E+00 2.766E-02 1.960E+03 0.000E+00 0.000E+00 1.961E+03 1.960E+03 							
2.000E-03 1.630E+00 3.099E-02 1.666E+03 0.000E+00 0.000E+00 1.668E+03 1.666E+03 							
3.000E-03 1.314E+00 5.029E-02 5.716E+02 0.000E+00 0.000E+00 5.729E+02 5.716E+02 							
4.000E-03 1.073E+00 6.648E-02 2.601E+02 0.000E+00 0.000E+00 2.613E+02 2.602E+02 							
5.000E-03 8.939E-01 7.980E-02 1.391E+02 0.000E+00 0.000E+00 1.401E+02 1.392E+02 							
6.000E-03 7.565E-01 9.074E-02 8.261E+01 0.000E+00 0.000E+00 8.345E+01 8.270E+01 							
8.000E-03 5.593E-01 1.074E-01 3.577E+01 0.000E+00 0.000E+00 3.643E+01 3.587E+01 							
1.000E-02 4.275E-01 1.193E-01 1.846E+01 0.000E+00 0.000E+00 1.901E+01 1.858E+01 							
1.500E-02 2.467E-01 1.377E-01 5.425E+00 0.000E+00 0.000E+00 5.809E+00 5.562E+00 							
2.000E-02 1.621E-01 1.476E-01 2.237E+00 0.000E+00 0.000E+00 2.547E+00 2.385E+00 							
3.000E-02 8.660E-02 1.561E-01 6.299E-01 0.000E+00 0.000E+00 8.726E-01 7.860E-01 							
4.000E-02 5.398E-02 1.582E-01 2.532E-01 0.000E+00 0.000E+00 4.654E-01 4.114E-01 							
5.000E-02 3.677E-02 1.576E-01 1.242E-01 0.000E+00 0.000E+00 3.185E-01 2.818E-01 							
6.000E-02 2.661E-02 1.557E-01 6.918E-02 0.000E+00 0.000E+00 2.515E-01 2.249E-01 							
8.000E-02 1.573E-02 1.504E-01 2.739E-02 0.000E+00 0.000E+00 1.935E-01 1.778E-01 							
1.000E-01 1.037E-02 1.447E-01 1.333E-02 0.000E+00 0.000E+00 1.684E-01 1.580E-01 							
1.500E-01 4.787E-03 1.318E-01 3.619E-03 0.000E+00 0.000E+00 1.402E-01 1.354E-01 							
2.000E-01 2.737E-03 1.213E-01 1.452E-03 0.000E+00 0.000E+00 1.255E-01 1.227E-01 							
3.000E-01 1.233E-03 1.059E-01 4.174E-04 0.000E+00 0.000E+00 1.075E-01 1.063E-01 							
4.000E-01 6.968E-04 9.501E-02 1.803E-04 0.000E+00 0.000E+00 9.588E-02 9.519E-02 							
5.000E-01 4.470E-04 8.684E-02 9.773E-05 0.000E+00 0.000E+00 8.738E-02 8.694E-02 							
6.000E-01 3.108E-04 8.036E-02 6.109E-05 0.000E+00 0.000E+00 8.073E-02 8.042E-02 							
8.000E-01 1.751E-04 7.064E-02 3.091E-05 0.000E+00 0.000E+00 7.085E-02 7.067E-02 							
1.000E+00 1.121E-04 6.353E-02 1.922E-05 0.000E+00 0.000E+00 6.367E-02 6.355E-02 							
1.022E+00 1.073E-04 6.286E-02 1.810E-05 0.000E+00 0.000E+00 6.299E-02 6.288E-02 							
1.250E+00 7.178E-05 5.682E-02 1.227E-05 2.680E-05 0.000E+00 5.693E-02 5.686E-02 							
1.500E+00 4.986E-05 5.164E-02 8.884E-06 1.465E-04 0.000E+00 5.184E-02 5.179E-02 							
2.000E+00 2.805E-05 4.408E-02 5.547E-06 5.794E-04 0.000E+00 4.469E-02 4.467E-02 							
2.044E+00 2.686E-05 4.353E-02 5.363E-06 6.244E-04 0.000E+00 4.419E-02 4.416E-02 							
3.000E+00 1.247E-05 3.467E-02 3.067E-06 1.650E-03 1.213E-05 3.635E-02 3.634E-02 							
4.000E+00 7.014E-06 2.893E-02 2.092E-06 2.669E-03 4.953E-05 3.166E-02 3.165E-02 							
5.000E+00 4.489E-06 2.498E-02 1.579E-06 3.577E-03 9.869E-05 2.866E-02 2.866E-02 							
6.000E+00 3.117E-06 2.208E-02 1.265E-06 4.391E-03 1.516E-04 2.663E-02 2.662E-02 							
7.000E+00 2.291E-06 1.985E-02 1.055E-06 5.115E-03 2.044E-04 2.517E-02 2.517E-02 							
8.000E+00 1.753E-06 1.806E-02 9.036E-07 5.766E-03 2.556E-04 2.408E-02 2.408E-02 							
9.000E+00 1.386E-06 1.660E-02 7.899E-07 6.358E-03 3.048E-04 2.327E-02 2.327E-02 							
1.000E+01 1.122E-06 1.538E-02 7.014E-07 6.895E-03 3.516E-04 2.263E-02 2.263E-02 							
1.100E+01 9.275E-07 1.435E-02 6.307E-07 7.382E-03 3.960E-04 2.213E-02 2.213E-02 							
1.200E+01 7.794E-07 1.346E-02 5.728E-07 7.830E-03 4.380E-04 2.172E-02 2.172E-02 							
1.300E+01 6.641E-07 1.267E-02 5.246E-07 8.246E-03 4.778E-04 2.140E-02 2.140E-02 							
1.400E+01 5.726E-07 1.199E-02 4.839E-07 8.632E-03 5.157E-04 2.114E-02 2.114E-02 							
1.500E+01 4.988E-07 1.138E-02 4.490E-07 8.993E-03 5.515E-04 2.093E-02 2.093E-02 							
1.600E+01 4.383E-07 1.084E-02 4.188E-07 9.333E-03 5.858E-04 2.076E-02 2.076E-02 							
1.800E+01 3.464E-07 9.909E-03 3.690E-07 9.955E-03 6.495E-04 2.051E-02 2.051E-02 							
2.000E+01 2.806E-07 9.138E-03 3.299E-07 1.051E-02 7.076E-04 2.036E-02 2.036E-02 							
2.200E+01 2.318E-07 8.487E-03 2.982E-07 1.101E-02 7.614E-04 2.026E-02 2.026E-02 							
2.400E+01 1.948E-07 7.931E-03 2.720E-07 1.147E-02 8.108E-04 2.022E-02 2.022E-02 							
2.600E+01 1.660E-07 7.447E-03 2.500E-07 1.189E-02 8.569E-04 2.020E-02 2.020E-02 							
2.800E+01 1.431E-07 7.025E-03 2.314E-07 1.228E-02 8.997E-04 2.021E-02 2.021E-02 							
3.000E+01 1.247E-07 6.652E-03 2.154E-07 1.264E-02 9.397E-04 2.023E-02 2.023E-02 							
4.000E+01 7.015E-08 5.285E-03 1.598E-07 1.411E-02 1.108E-03 2.051E-02 2.051E-02 							
5.000E+01 4.489E-08 4.413E-03 1.271E-07 1.522E-02 1.239E-03 2.088E-02 2.088E-02 							
6.000E+01 3.117E-08 3.801E-03 1.054E-07 1.610E-02 1.344E-03 2.124E-02 2.124E-02 							
8.000E+01 1.753E-08 2.998E-03 7.863E-08 1.741E-02 1.507E-03 2.192E-02 2.192E-02 							
1.000E+02 1.122E-08 2.489E-03 6.271E-08 1.836E-02 1.628E-03 2.248E-02 2.248E-02 							
1.500E+02 4.987E-09 1.772E-03 4.162E-08 1.991E-02 1.837E-03 2.352E-02 2.352E-02 							
2.000E+02 2.806E-09 1.390E-03 3.115E-08 2.085E-02 1.972E-03 2.422E-02 2.422E-02 							
3.000E+02 1.247E-09 9.848E-04 2.073E-08 2.199E-02 2.144E-03 2.511E-02 2.511E-02 							
4.000E+02 7.014E-10 7.713E-04 1.552E-08 2.265E-02 2.249E-03 2.567E-02 2.567E-02 							
5.000E+02 4.489E-10 6.386E-04 1.241E-08 2.308E-02 2.322E-03 2.605E-02 2.605E-02 							
6.000E+02 3.117E-10 5.467E-04 1.034E-08 2.340E-02 2.378E-03 2.632E-02 2.632E-02 							
8.000E+02 1.753E-10 4.270E-04 7.750E-09 2.383E-02 2.454E-03 2.671E-02 2.671E-02 							
1.000E+03 1.122E-10 3.513E-04 6.198E-09 2.411E-02 2.505E-03 2.696E-02 2.696E-02 							
1.500E+03 4.987E-11 2.453E-04 4.130E-09 2.451E-02 2.581E-03 2.734E-02 2.734E-02 							
2.000E+03 2.806E-11 1.899E-04 3.097E-09 2.473E-02 2.625E-03 2.754E-02 2.754E-02 							
3.000E+03 1.247E-11 1.320E-04 2.064E-09 2.497E-02 2.673E-03 2.777E-02 2.777E-02 							
4.000E+03 7.014E-12 1.019E-04 1.548E-09 2.510E-02 2.702E-03 2.791E-02 2.791E-02 							
5.000E+03 4.489E-12 8.332E-05 1.238E-09 2.518E-02 2.719E-03 2.798E-02 2.798E-02 							
6.000E+03 3.117E-12 7.066E-05 1.032E-09 2.524E-02 2.731E-03 2.805E-02 2.805E-02 							
8.000E+03 1.753E-12 5.442E-05 7.739E-10 2.531E-02 2.747E-03 2.812E-02 2.812E-02 							
1.000E+04 1.122E-12 4.443E-05 6.191E-10 2.536E-02 2.758E-03 2.817E-02 2.817E-02 							
1.500E+04 4.987E-13 3.071E-05 4.127E-10 2.542E-02 2.772E-03 2.822E-02 2.822E-02 							
2.000E+04 2.806E-13 2.361E-05 3.095E-10 2.546E-02 2.780E-03 2.826E-02 2.826E-02 							
3.000E+04 1.247E-13 1.629E-05 2.064E-10 2.550E-02 2.788E-03 2.831E-02 2.831E-02 							
4.000E+04 7.014E-14 1.250E-05 1.548E-10 2.552E-02 2.794E-03 2.833E-02 2.833E-02 							
5.000E+04 4.489E-14 1.018E-05 1.238E-10 2.553E-02 2.796E-03 2.833E-02 2.833E-02 							
6.000E+04 3.117E-14 8.607E-06 1.032E-10 2.554E-02 2.798E-03 2.835E-02 2.835E-02 							
8.000E+04 1.753E-14 6.599E-06 7.738E-11 2.554E-02 2.800E-03 2.835E-02 2.835E-02 							
1.000E+05 1.122E-14 5.368E-06 6.190E-11 2.556E-02 2.802E-03 2.837E-02 2.837E-02 							